time (s)	magX	magY	magZ
8370.473134	386.210388	56.770897	-1199.286377
8370.476500	393.106964	62.381649	-1189.175293
8370.479850	401.172424	68.985977	-1180.934570
8370.483210	407.952087	74.947395	-1169.245483
8370.486547	414.673309	81.317940	-1158.316162
8370.489810	421.628296	88.623611	-1147.562256
8370.493140	427.472809	95.753944	-1138.561646
8370.496476	432.732910	102.299828	-1125.995972
8370.499830	438.460571	109.897713	-1114.949707
8370.503165	443.077728	117.437164	-1105.540039
8370.506583	447.227356	125.035065	-1095.136719
8370.509899	451.260071	133.158981	-1083.798340
8370.513206	454.942169	140.113968	-1074.973145
8370.516471	458.215088	147.361191	-1065.037354
8370.519829	462.014038	154.783768	-1055.802979
8370.523127	464.351837	161.388092	-1045.341309
8370.526484	466.806519	168.518417	-1036.165405
8370.529827	468.501465	174.888962	-1025.762085
8370.532738	471.189941	180.675049	-1017.346008
8370.536073	472.241943	187.162491	-1007.468689
8370.539410	474.521332	192.071899	-998.058960
8370.542744	475.631775	197.156647	-989.584473
8370.546041	477.735840	201.014038	-980.466919
8370.549403	480.950348	205.455872	-973.161316
8370.552716	481.242554	209.137939	-964.335999
8370.556037	483.405029	211.767990	-956.796570
8370.559368	486.268829	214.982468	-948.789612
8370.562714	488.431335	217.846298	-941.600830
8370.566087	491.178253	220.008774	-933.184631
8370.569393	493.574493	222.463486	-925.352966
8370.572733	496.087677	223.340149	-918.748657
8370.576102	497.724121	225.151962	-908.637634
8370.579393	501.289307	226.613098	-900.981262
8370.582713	502.458221	227.372879	-892.682068
8370.586081	506.140259	229.067810	-884.967224
8370.589372	507.835175	229.652267	-876.492676
8370.592713	510.406799	231.405609	-866.498535
8370.596036	512.335449	232.223846	-858.199341
8370.599372	513.504395	233.451202	-849.257202
8370.602719	515.725281	234.386322	-839.730530
8370.606063	517.887817	235.613678	-830.846863
8370.609401	518.764465	237.600830	-821.904785
8370.612703	520.576294	239.587982	-812.553528
8370.616042	520.225586	241.399765	-804.254272
8370.619366	521.803650	242.276459	-794.084717
8370.622707	522.738770	245.432495	-785.610168
8370.626039	523.264771	247.887207	-777.486206
8370.629388	523.673889	250.517242	-768.894775
8370.632705	523.498535	253.614853	-760.069519
8370.636064	522.329651	256.478668	-751.887207
8370.639396	522.972534	259.751617	-743.412598
8370.642720	521.277588	262.907684	-736.574524
8370.646092	520.342468	266.063721	-728.859741
8370.649371	519.874939	269.336639	-721.203369
8370.652715	518.355347	272.960266	-714.131470
8370.656027	518.121521	276.116333	-708.345398
8370.659374	514.848633	278.921692	-702.150208
8370.662692	513.738159	282.253082	-696.071838
8370.666035	513.095276	284.766235	-690.227295
8370.669366	511.225006	287.220917	-684.850342
8370.672741	509.296295	289.441864	-679.414917
8370.676056	508.010498	292.247223	-674.154846
8370.679385	504.912933	294.175934	-669.888367
8370.682694	504.912933	296.163055	-664.628296
8370.686024	504.036255	297.448883	-660.946228
8370.689400	502.224426	298.091766	-655.978333
8370.692698	501.873749	299.611359	-652.530090
8370.695605	501.172424	300.663361	-647.912903
8370.698933	499.886627	301.656952	-644.756836
8370.702271	499.652832	302.182953	-641.016357
8370.705601	499.302185	301.949158	-637.158936
8370.708939	498.483917	302.416718	-633.184692
8370.712273	498.834595	302.299835	-630.320862
8370.715607	498.250122	301.540039	-625.645203
8370.718940	499.126831	301.072479	-621.963196
8370.722270	498.834595	301.014038	-617.521362
8370.725597	498.951508	300.195801	-613.547058
8370.728931	499.302185	299.377563	-609.338928
8370.732317	499.126831	299.085327	-605.540039
8370.735605	499.535980	298.617767	-601.098145
8370.738932	498.776184	297.974884	-597.065430
8370.742261	498.250122	297.857971	-593.558716
8370.745600	498.659241	298.442444	-587.421936
8370.748927	498.016388	298.267090	-584.149048
8370.752264	497.198120	298.208679	-579.239624
8370.755600	497.957916	298.968445	-574.213318
8370.758937	496.672119	299.202240	-570.940369
8370.762260	495.094086	300.429596	-566.147827
8370.765598	493.574493	301.540039	-563.167114
8370.768930	493.340759	302.533600	-558.666870
8370.772262	491.353577	303.819427	-554.341919
8370.775621	489.600250	305.222107	-550.776733
8370.778931	488.372864	307.267700	-547.912903
8370.782260	486.911743	308.845703	-544.932190
8370.785598	484.340179	309.897736	-541.308594
8370.788923	483.580383	312.878448	-537.743408
8370.792260	481.300995	314.514893	-535.814697
8370.795596	480.307404	316.794281	-534.295105
8370.798939	477.735840	319.015198	-532.424866
8370.802255	475.924042	320.300995	-530.671509
8370.805594	474.112213	321.820557	-528.450562
8370.808926	472.125092	324.275269	-528.041443
8370.812261	470.722382	326.320862	-527.340149
8370.815590	469.378174	326.963745	-526.346558
8370.818954	467.975464	328.600250	-526.229675
8370.822254	466.864990	330.295166	-526.463440
8370.825590	465.754547	330.704285	-525.762146
8370.828920	465.111603	331.697845	-526.697266
8370.832268	463.241364	332.925201	-526.346558
8370.835590	462.247833	333.743439	-526.580322
8370.838926	462.598480	333.626526	-527.106323
8370.842252	461.429565	334.035675	-528.041443
8370.845585	462.130920	333.918762	-528.041443
8370.848921	462.189362	334.210999	-528.509033
8370.852258	462.014038	333.042084	-527.749268
8370.855670	461.546448	333.801880	-529.035034
8370.858922	463.592072	332.808319	-529.151978
8370.862284	462.364685	333.509674	-528.918152
8370.865586	463.124481	331.990082	-528.918152
8370.868919	464.410278	332.516083	-528.859741
8370.872254	464.059631	332.106964	-528.684387
8370.875603	464.059631	332.106964	-528.859741
8370.878922	465.053192	331.405609	-528.509033
8370.882255	465.170074	332.223846	-527.398560
8370.885582	464.644073	331.814728	-526.405029
8370.888914	463.767426	331.522522	-526.755676
8370.892256	463.358276	332.691406	-525.177673
8370.895579	463.358276	332.983643	-525.879028
8370.898916	462.832275	334.210999	-524.476318
8370.902246	463.825836	335.379913	-524.593201
8370.905608	462.247833	336.607239	-523.658081
8370.908912	461.955566	337.542389	-524.534729
8370.912247	459.910004	339.471069	-523.541138
8370.915591	459.150208	341.049103	-524.125610
8370.918923	457.689087	342.919342	-524.827026
8370.922250	457.396881	344.789612	-524.943848
8370.925581	455.351288	346.601410	-526.755676
8370.928918	453.714783	348.588562	-527.807739
8370.932252	452.078308	350.867920	-528.976562
8370.935582	450.734070	353.673279	-530.905273
8370.938909	448.980743	355.426636	-533.184692
8370.942252	448.162476	357.413788	-535.171814
8370.945582	446.759766	359.634735	-537.158936
8370.948932	445.590912	361.914093	-540.373474
8370.952248	444.188202	363.375244	-543.821716
8370.955581	442.025726	365.420807	-546.568604
8370.958911	441.908813	367.524841	-549.900024
8370.962238	440.739929	368.985992	-554.283447
8370.965576	439.629425	370.563995	-557.731750
8370.968911	439.395691	370.213348	-561.296875
8370.972241	439.045013	372.258942	-565.797180
8370.975575	438.635895	373.720062	-569.713013
8370.978920	438.811218	374.479828	-574.797791
8370.982246	438.518982	375.590302	-578.772095
8370.985574	437.934570	375.765625	-582.278748
8370.988909	438.752777	375.765625	-586.194580
8370.992258	439.220367	376.116333	-591.162415
8370.995574	438.752777	376.174774	-595.078247
8370.998907	439.512573	376.817657	-599.929260
8371.002243	440.097015	377.811218	-604.838684
8371.005576	440.447693	378.278778	-608.286926
8371.008907	441.149017	378.278778	-612.670349
8371.012236	440.038574	379.155457	-616.819946
8371.015575	440.623016	379.038574	-618.573303
8371.018909	441.616608	379.856812	-622.255371
8371.022232	440.681488	380.499725	-625.879028
8371.025575	439.687897	380.967285	-629.151978
8371.028901	439.571014	382.545319	-632.483337
8371.032233	438.168304	382.720642	-635.405579
8371.035576	437.466980	383.597321	-637.918762
8371.038903	436.414978	384.766235	-642.360596
8371.042292	435.830536	385.409119	-647.094666
8371.045576	435.070740	386.753357	-651.302734
8371.048901	434.486267	388.331390	-656.329041
8371.052236	433.609619	389.266510	-660.712402
8371.055569	432.031555	390.435425	-667.083008
8371.058903	432.732910	391.662750	-673.219727
8371.062236	431.505554	393.357697	-680.934509
8371.065565	429.810638	394.935730	-688.064880
8371.068899	428.700195	395.169495	-697.357666
8371.072261	427.239075	396.046173	-705.832214
8371.075563	426.187012	397.624207	-715.008179
8371.078908	422.914093	398.208679	-724.943848
8371.082227	420.751587	398.793091	-735.288696
8371.085565	418.180023	398.734680	-747.153076
8371.088900	415.199310	399.494446	-757.264160
8371.092233	411.926331	400.312683	-767.842773
8371.095567	408.478088	400.488007	-779.531799
8371.098898	404.211578	401.890717	-790.402649
8371.102227	400.763306	401.598480	-800.981262
8371.105562	395.912354	401.832275	-811.793701
8371.108894	390.827576	404.462311	-821.378723
8371.112255	386.035065	405.397430	-831.139099
8371.115601	381.476318	406.391022	-839.964294
8371.118895	376.450043	407.618347	-849.958496
8371.122231	370.663940	408.319702	-857.965454
8371.125565	365.286987	409.897736	-865.329651
8371.128891	360.143799	411.241974	-873.161316
8371.132230	355.818817	412.410858	-879.531860
8371.135563	350.967865	413.579773	-887.012878
8371.138890	346.350677	414.807159	-892.915833
8371.142229	341.616608	415.274689	-899.344849
8371.145560	337.759216	415.976013	-905.715393
8371.148895	333.492676	416.092957	-912.670349
8371.152228	329.752197	416.794281	-916.001709
8371.155559	326.011688	416.326752	-923.599609
8371.158911	322.504974	415.040894	-931.080627
8371.162220	319.056702	414.281097	-937.918762
8371.165558	315.374634	413.229095	-946.276489
8371.168892	312.043274	410.482208	-953.640564
8371.172224	307.893646	407.092346	-962.407288
8371.175553	303.568665	404.637634	-972.284607
8371.178886	299.360626	400.721802	-982.278748
8371.182218	294.801880	396.922852	-994.026306
8371.185550	289.658691	393.182343	-1005.539978
8371.188887	284.047943	387.863831	-1017.346008
8371.192220	277.443604	382.779083	-1030.262329
8371.195550	271.131500	377.460541	-1045.107544
8371.198891	264.001160	371.499146	-1058.374634
8371.202246	256.169495	364.368805	-1073.395020
8371.205552	247.694931	358.173584	-1088.590942
8371.208886	238.109879	350.575684	-1104.955566
8371.212221	226.654602	343.328491	-1119.683838
8371.215550	214.848633	335.029236	-1135.054932
8371.218879	202.516663	327.080658	-1149.374023
8371.222216	188.489777	318.839874	-1163.634644
8371.225551	174.053772	308.904144	-1176.843384
8371.228883	158.974884	299.260651	-1190.227295
8371.232218	142.376389	290.260071	-1203.143799
8371.235550	125.427231	281.668610	-1215.183594
8371.238926	107.776733	271.616028	-1225.995972
8371.242220	91.002930	263.024536	-1234.879639
8371.245584	72.300415	253.439529	-1246.627197
8371.248884	54.007015	244.555832	-1255.043213
8371.252223	36.181183	236.022812	-1261.589111
8371.255547	18.530685	226.496201	-1269.187012
8371.258879	-0.580947	216.677383	-1272.985962
8371.262213	-18.231443	206.975464	-1279.239624
8371.265546	-35.998833	197.682648	-1283.447632
8371.268881	-53.649326	187.980728	-1286.019287
8371.272212	-70.481583	178.395676	-1289.526001
8371.275544	-86.495621	169.278198	-1291.162476
8371.278878	-102.217407	160.043839	-1292.506714
8371.282217	-117.646988	151.043259	-1293.149536
8371.285547	-132.842773	142.977798	-1293.500244
8371.288902	-146.518997	134.269440	-1293.558716
8371.292212	-160.662766	126.437752	-1292.156006
8371.295547	-173.637634	117.787842	-1294.318481
8371.298930	-186.846283	110.073059	-1292.039062
8371.302221	-199.879593	101.890709	-1292.156006
8371.305541	-212.328461	94.526596	-1289.292236
8371.308877	-224.192856	87.454704	-1285.843994
8371.312208	-235.472824	81.025711	-1284.675049
8371.315545	-246.811218	74.538284	-1281.635864
8371.318877	-258.091156	67.992401	-1278.070679
8371.322209	-269.137329	61.738747	-1273.804199
8371.325544	-280.767975	54.959087	-1269.128662
8371.328872	-292.515503	48.997662	-1264.511353
8371.332242	-302.918762	42.101112	-1256.679687
