time (s)	magX	magY	magZ
3075.705515	-495.803650	-192.493271	1482.180054
3075.708881	-480.666321	-185.947403	1499.362915
3075.712175	-465.528931	-179.284622	1512.396362
3075.715545	-450.274719	-171.686737	1530.748169
3075.718885	-433.617798	-163.971939	1544.716553
3075.722262	-417.077728	-156.841614	1558.568115
3075.725600	-398.609039	-148.191696	1571.192383
3075.728873	-380.841614	-140.418457	1586.154419
3075.732207	-361.320892	-132.586792	1597.083618
3075.735513	-342.969055	-123.936874	1607.603760
3075.738875	-322.279388	-114.644066	1619.643555
3075.742200	-302.232635	-105.409698	1629.637573
3075.745535	-280.315613	-96.175331	1639.515015
3075.748924	-258.983063	-86.824074	1647.405151
3075.752295	-236.598480	-77.239037	1654.944580
3075.755509	-214.330811	-67.712448	1661.958008
3075.758867	-191.127975	-57.484516	1666.224365
3075.762175	-168.392746	-47.139683	1670.666260
3075.765526	-145.248398	-36.970192	1673.705444
3075.768863	-121.227356	-26.508474	1677.562866
3075.772252	-97.440094	-17.040327	1676.861450
3075.775622	-74.471069	-6.812391	1677.270630
3075.778885	-49.631794	3.473992	1678.556396
3075.782174	-26.253654	13.468147	1675.283569
3075.785495	-3.050848	23.754530	1673.530151
3075.788875	20.911747	32.638222	1670.900024
3075.792192	43.763882	41.989479	1665.230835
3075.795645	66.849792	51.282288	1661.198120
3075.798902	89.351257	60.399765	1653.775635
3075.802258	111.443604	69.867920	1647.989502
3075.805510	133.360611	78.926949	1637.469360
3075.808842	154.634720	86.992401	1628.760986
3075.812174	176.201050	94.999420	1619.409668
3075.815535	196.072479	103.649330	1611.052002
3075.818842	216.002335	111.364120	1599.070801
3075.822240	236.341324	119.020462	1589.310303
3075.825587	255.452957	126.443016	1574.348389
3075.828908	274.155457	133.222687	1564.237305
3075.832170	293.150208	140.703690	1551.496216
3075.835497	311.443573	147.717133	1536.826416
3075.838841	327.749847	154.789017	1522.741089
3075.842185	345.517212	160.282883	1507.311523
3075.845564	362.933929	166.478088	1491.881958
3075.848932	379.415527	172.907074	1476.160156
3075.852234	395.195801	178.517822	1460.029175
3075.855502	411.151367	184.829926	1441.969727
3075.858873	426.113373	189.447113	1424.202271
3075.862160	441.367615	194.765640	1406.960815
3075.865513	455.219177	200.259506	1388.901245
3075.868873	469.772034	204.876694	1370.490967
3075.872240	483.623596	209.727661	1353.541870
3075.875564	497.708923	213.877258	1332.326172
3075.878459	509.865570	219.078903	1312.454712
3075.882185	521.613098	222.877838	1292.524902
3075.885491	533.068420	226.735245	1272.945679
3075.888446	543.062561	230.884872	1251.905396
3075.892176	554.167175	234.099350	1232.033936
3075.895528	564.161316	237.313858	1211.285767
3075.898420	573.629456	240.294556	1193.810669
3075.901754	582.337830	243.333725	1171.601440
3075.905086	590.637085	246.197540	1150.619507
3075.908412	598.059631	248.652252	1130.689697
3075.911744	604.605530	250.580933	1109.357178
3075.915097	611.092957	253.210983	1089.135132
3075.918396	616.937500	254.789001	1070.315674
3075.921742	622.898865	256.483917	1050.561157
3075.925075	626.639404	258.178833	1031.215698
3075.928392	630.496826	259.873749	1011.461121
3075.931733	634.821777	261.218018	992.583191
3075.935089	639.380493	261.977814	974.406738
3075.938424	642.419678	262.796021	956.405579
3075.941787	644.465210	263.555817	938.404419
3075.945072	646.452393	264.198730	920.695435
3075.948395	648.322632	264.783173	905.090576
3075.951732	650.251343	265.250732	887.206299
3075.955076	652.004700	265.367615	871.075378
3075.958434	652.472229	264.841614	855.762695
3075.961738	652.822937	265.309174	840.333130
3075.965073	653.816467	264.783173	823.325500
3075.968417	653.115173	264.198730	808.772583
3075.971748	654.108765	264.841614	793.050781
3075.975108	652.063171	263.848053	779.199280
3075.978419	652.530701	263.263580	764.295715
3075.981753	651.829346	262.562225	750.210388
3075.985054	649.783752	261.919342	735.540588
3075.988395	649.549988	261.627106	721.572144
3075.991723	648.614868	260.808868	708.947937
3075.995068	646.978394	259.347748	695.271729
3075.998393	645.225037	259.406189	682.179993
3076.001762	644.114563	258.237305	668.503723
3076.005071	640.841675	257.009949	655.295105
3076.008419	640.724731	256.133240	642.437134
3076.011743	637.101135	254.789001	629.228516
3076.015058	636.166016	253.620102	616.954956
3076.018397	633.302185	252.860321	605.090576
3076.021735	629.795471	251.632965	593.050781
3076.025056	628.860352	251.048508	580.075989
3076.028388	626.522522	249.821167	568.854492
3076.031723	622.489807	248.360016	557.457581
3076.035050	620.093506	247.191132	546.411438
3076.038404	616.586792	246.139099	533.904114
3076.041754	613.255432	244.619522	-1033.132690
3076.045122	606.358887	217.267090	-1219.281128
3076.048429	601.800110	229.423721	477.971954
3076.051773	602.092407	241.463486	489.368805
3076.055065	600.455872	239.885452	480.777344
3076.058404	597.241394	238.015213	470.549408
3076.061732	592.156677	235.852722	461.841034
3076.065076	590.987732	235.268265	451.496185
3076.068387	586.078308	233.748688	441.326721
3076.071721	584.441895	232.345993	435.715973
3076.075056	580.058472	230.943314	426.715393
3076.078387	577.837524	230.125076	419.701935
3076.081715	576.434875	229.423721	411.811798
3076.085072	571.759216	228.196365	405.558167
3076.088405	569.596741	227.378143	400.531830
3076.091738	566.966675	225.858551	393.518433
3076.095125	561.706604	224.046768	386.972534
3076.098390	557.323242	222.819412	381.420227
3076.101719	558.083008	222.819412	375.984802
3076.105048	552.180054	220.189362	370.257172
3076.107981	551.128052	219.546463	367.510223
3076.111710	549.023987	218.377548	360.438354
3076.115048	545.867920	217.442429	355.821167
3076.117955	543.880798	216.039734	351.729980
3076.121295	539.964966	215.046173	347.521912
3076.124622	538.503845	214.169495	341.969604
3076.127953	535.406250	212.883698	338.462891
3076.131287	532.659241	211.597900	334.547058
3076.134617	531.139709	211.305679	329.111633
3076.137980	528.626587	210.078323	324.260651
3076.141282	526.171875	208.441833	319.760376
3076.144643	523.015808	207.389847	315.902985
3076.147950	521.379333	205.987152	312.337830
3076.151311	519.275269	205.227356	307.837524
3076.154616	516.060791	204.467560	303.395660
3076.157950	514.424316	202.889542	299.304504
3076.161289	510.800690	202.305084	294.570404
3076.164635	507.878448	201.077728	290.713043
3076.167947	507.644653	200.727066	286.388092
3076.171285	503.319672	199.675049	281.537140
3076.174625	501.507904	198.623032	278.381073
3076.177951	501.157196	197.629456	274.348328
3076.181281	498.293396	196.694336	270.783173
3076.184618	495.429565	195.408539	266.575104
3076.187947	493.442444	194.765640	263.652832
3076.191285	489.935669	193.655182	260.496796
3076.194636	487.948547	193.012283	257.399170
3076.197948	485.552307	193.246063	253.717133
3076.201285	484.850983	191.843369	251.963760
3076.204612	482.688477	191.083588	249.450607
3076.207966	481.110474	190.382233	246.703690
3076.211291	478.947968	190.148453	244.833435
3076.214621	477.019257	189.154877	242.729401
3076.217946	475.908783	188.921097	242.320267
3076.221276	475.207458	188.161316	239.398026
3076.224612	474.213867	187.927536	238.287567
3076.227953	473.220337	187.401520	237.995331
3076.231282	472.752747	186.992401	236.826416
3076.234612	472.051422	185.998825	235.657516
3076.237946	471.700745	186.291061	235.306839
3076.241280	471.525421	185.472824	235.540619
3076.244608	470.239624	185.531265	234.313263
3076.247949	469.362915	185.122147	234.430161
3076.251288	469.304504	184.537704	233.962601
3076.254612	469.012268	184.479263	233.904144
3076.257947	468.895386	184.479263	233.904144
3076.261283	468.486267	184.011688	233.144348
3076.264608	469.479828	183.719467	233.319702
3076.267941	467.784912	184.011688	233.261246
3076.271271	468.486267	183.427231	233.027481
3076.274649	467.784912	183.310349	234.079498
3076.277950	468.661591	183.193451	233.319702
3076.281278	468.310913	183.018127	232.793686
3076.284602	467.025116	183.135010	232.033890
3076.287936	468.720062	182.784332	232.618347
3076.291271	467.317352	182.667450	232.384583
3076.294620	468.310913	182.725891	231.683228
3076.297941	467.960266	182.024551	231.858566
3076.301270	467.551117	181.907669	231.449463
3076.304604	467.901794	181.498535	231.507889
3076.307938	467.784912	181.440094	230.748108
3076.311271	467.083557	181.615433	231.566330
3076.314602	467.901794	181.030975	230.689667
3076.317936	466.148407	181.381653	230.923431
3076.321273	467.784912	181.498535	230.981903
3076.324632	469.012268	181.440094	231.157227
3076.327937	468.135590	181.381653	231.975464
3076.331273	469.246063	181.673874	233.085922
3076.334604	469.830505	181.440094	233.319702
3076.337938	469.888916	181.147873	233.728806
3076.341269	470.765625	182.082993	234.605499
3076.344602	471.817627	182.082993	235.715958
3076.347935	472.168304	182.550552	236.826416
3076.351264	473.161896	182.959671	238.755127
3076.354603	475.090607	183.310349	240.040924
3076.357930	475.967255	183.485687	242.495636
3076.361271	477.779053	183.894791	244.365875
3076.364602	479.123291	184.420807	245.943909
3076.367932	480.292206	184.479263	248.749283
3076.371266	482.396271	185.239044	251.379318
3076.374598	485.026306	185.648163	254.710693
3076.377932	486.721222	186.232605	256.405609
3076.381260	488.649872	186.758621	260.204559
3076.384593	491.046143	187.401520	262.776154
3076.387930	494.202240	188.102859	266.516663
3076.391265	496.247803	188.628876	270.140259
3076.394597	498.994720	188.921097	273.647003
3076.397978	500.748108	189.856232	277.036835
3076.401263	502.501434	190.499130	280.134430
3076.404592	504.605469	190.732910	284.284027
3076.407932	507.235535	191.142014	287.790771
3076.411282	510.099365	191.609589	291.940399
3076.414597	511.852692	192.194046	295.914673
3076.417929	512.963135	193.129166	299.070709
3076.421264	516.645264	194.181183	302.752777
3076.424596	519.333679	194.181183	306.668610
3076.427924	521.613098	195.350098	311.052002
3076.431257	523.600281	195.700760	313.740509
3076.434587	526.814697	196.051437	317.714783
3076.437927	529.210999	197.161896	321.864410
3076.441275	530.496826	197.454132	326.189362
3076.444588	533.302185	197.980133	329.812988
3076.447927	536.282898	198.447693	333.553467
3076.451254	538.503845	199.441269	337.703094
3076.454588	542.068970	200.610168	341.852722
3076.457926	543.822388	201.311508	346.879028
3076.461254	546.160156	201.895966	352.197540
3076.464603	549.549988	202.947983	356.931610
3076.467919	552.764465	203.766205	361.256561
3076.471254	554.576294	204.526001	366.925781
3076.474586	557.440125	205.110458	372.478088
3076.477959	560.771484	205.870255	378.264191
3076.481257	563.752197	206.396255	383.816467
3076.484607	566.031555	207.682068	390.771484
3076.487923	569.655212	208.383408	398.135590
3076.491254	572.811218	209.961426	405.207458
3076.494586	575.441284	210.604324	412.454712
3076.497916	580.701355	211.247238	419.701935
3076.501250	583.623596	212.766800	428.176514
3076.504588	586.019897	213.701920	436.651093
3076.507915	590.637085	214.695511	446.002350
3076.511255	594.728271	215.046173	454.769165
3076.514582	597.708984	216.156631	464.646393
3076.517919	601.683289	217.208649	475.751038
3076.521248	605.306824	217.500885	486.329620
3076.524585	609.339600	218.026886	497.083588
3076.527916	613.021667	218.611343	507.428436
3076.531317	616.294617	219.429565	518.006958
3076.534581	618.807739	220.247803	528.351807
3076.537919	623.483337	221.241394	540.157776
3076.541249	625.879578	221.066055	551.087036
3076.544584	629.035706	221.592056	562.893005
3076.547913	632.308594	222.410278	573.588501
3076.551244	634.938660	222.936310	585.569824
3076.554577	638.912964	223.111633	597.843323
3076.557912	642.010498	223.696091	610.233765
3076.561244	643.120972	224.163666	622.682617
3076.564582	646.393921	224.397430	632.852112
3076.567913	649.433105	225.098785	645.710083
3076.571265	651.654053	224.689667	657.983643
3076.574580	653.874939	224.981888	670.490906
3076.577911	656.037415	224.864990	683.290405
3076.581242	658.433716	224.806549	696.557556
3076.584577	661.472839	225.157227	709.006409
3076.587909	662.758667	224.806549	721.279968
3076.591242	664.278198	225.098785	733.611877
3076.594579	665.213318	224.981888	748.047913
3076.597907	666.382263	225.098785	762.776123
3076.601238	668.720093	224.572769	775.926331
3076.604585	668.953796	224.455872	791.472778
3076.607909	669.947388	223.812973	806.727051
3076.611243	671.642334	223.462311	821.864380
3076.614604	671.700806	222.702515	837.235474
3076.617910	670.590332	222.585617	853.424866
3076.621244	669.772095	221.299820	870.315613
3076.624578	670.239685	219.721802	888.024536
3076.627927	669.596741	219.429565	905.616638
3076.631243	668.953796	217.793121	922.974792
3076.634568	666.206909	216.974869	941.735779
3076.637908	664.570435	215.279938	961.198059
3076.641240	661.648132	213.117493	981.829285
3076.644572	659.485718	210.838104	1000.531799
3076.647909	656.154297	208.324966	1022.390442
3076.651230	652.238464	205.928696	1041.502075
3076.654570	647.913513	203.707779	1062.600830
3076.657915	643.705444	200.434830	1083.524292
3076.661241	638.153137	197.395676	1105.265991
3076.664569	632.893066	194.064285	1124.669800
3076.667908	626.639404	190.849808	1148.924683
3076.671248	619.976624	186.875519	1167.802490
3076.674570	612.144958	183.427231	1189.251953
3076.677905	604.488647	178.810059	1209.590942
3076.681236	595.546448	174.426651	1230.689697
3076.684565	586.429016	170.277039	1251.788452
3076.687898	578.305115	164.900055	1272.478149
3076.691238	568.077148	160.165985	1292.524902
3076.694598	558.199890	155.022797	1313.214478
3076.697903	548.381042	149.236710	1331.332642
3076.701235	536.808899	144.444183	1351.203979
3076.704570	524.886047	139.651672	1369.029785
3076.707901	512.787842	133.982468	1386.563354
3076.711234	499.754517	128.371704	1406.668701
3076.714565	486.838104	122.118065	1426.014038
3076.717895	472.694305	115.513741	1444.190552
3076.721229	459.427216	109.727638	1461.022827
3076.724564	445.400330	104.058456	1477.329102
3076.727899	431.373444	97.571014	1493.576904
3076.731234	415.184113	90.908241	1508.772705
3076.734561	400.631195	84.128586	1524.786621
3076.737930	383.915833	77.758041	1540.976074
3076.741231	367.025116	70.861488	1555.178223
3076.744562	349.900635	63.205139	1568.328491
3076.747893	332.250122	55.724136	1582.647583
3076.751225	313.839874	47.658676	1594.336670
3076.754559	294.260651	40.060780	1607.253174
3076.757897	275.967255	31.819988	1620.344849
3076.761229	255.862076	23.988312	1631.098877
3076.764552	235.581528	15.046171	1641.619019
3076.767895	214.073639	5.987142	1651.905396
3076.771229	192.565750	-3.247223	1660.964355
3076.774562	169.947403	-12.598480	1671.192261
3076.777893	146.861496	-22.300407	1676.452393
3076.781239	123.308014	-32.236122	1685.686768
3076.784562	99.871414	-42.171833	1690.537720
3076.787897	75.791931	-52.399769	1693.693848
3076.791222	51.244884	-62.569263	1699.888916
3076.794555	26.814728	-73.498535	1701.934570
3076.797890	1.507890	-83.317352	1703.337158
3076.801229	-23.272942	-94.129745	1705.499756
3076.804600	-47.761543	-104.883682	1703.161865
3076.807893	-72.425491	-114.527168	1701.408447
3076.811222	-95.628296	-125.164223	1698.544800
3076.814552	-120.526001	-135.099945	1694.862671
3076.817894	-143.845703	-145.094101	1689.427246
3076.821224	-167.106949	-155.322037	1681.361816
3076.824576	-189.900650	-164.731735	1677.095337
3076.827884	-211.876099	-173.849197	1668.036133
3076.831219	-233.734650	-183.843369	1659.620239
3076.834554	-254.774979	-192.025711	1648.866211
3076.837888	-275.990662	-200.850952	1638.813477
3076.841217	-296.329651	-208.624191	1629.345459
3076.844548	-315.207489	-216.105194	1615.786133
3076.847882	-334.319122	-224.229111	1605.499756
3076.851214	-353.080078	-231.242554	1591.589722
3076.854555	-371.198151	-237.788437	1578.322632
3076.857881	-388.030396	-244.684967	1564.763306
3076.861218	-404.336639	-250.471054	1549.158447
3076.864555	-421.285828	-257.133820	1532.735229
3076.867891	-436.423157	-262.686157	1517.656372
3076.871220	-451.502045	-268.121582	1502.285278
3076.874558	-466.171844	-273.323181	1486.212769
3076.877880	-480.432526	-278.466370	1468.912964
3076.881218	-494.225616	-284.077148	1450.268799
3076.884545	-507.200470	-287.759186	1431.332642
3076.887881	-519.707764	-292.317932	1412.337891
3076.891213	-531.864380	-296.526001	1392.466431
3076.894549	-544.079468	-300.792511	1374.114624
3076.897886	-554.599670	-306.111053	1353.892578
3076.901215	-565.295166	-309.208649	1333.494995
3076.904548	-576.341309	-312.832245	1313.331421
3076.907884	-586.803040	-315.286957	1291.706665
3076.911236	-596.037354	-319.202789	1270.374146
3076.914545	-605.505554	-321.306854	1248.106445
3076.917884	-613.454102	-323.995331	1225.838745
3076.921213	-621.285767	-326.566925	1203.395752
3076.924545	-628.591492	-328.437164	1180.368286
3076.927879	-635.371094	-331.008759	1158.158936
3076.931210	-641.624756	-331.534790	1135.482178
3076.934538	-647.410828	-333.814148	1112.571655
3076.937872	-651.794250	-334.924591	1090.187134
3076.941275	-656.586792	-335.801270	1069.205200
3076.944548	-660.736389	-336.794830	1045.768555
3076.947876	-664.184692	-337.320862	1025.020508
3076.951208	-668.743408	-337.729980	1000.531799
3076.954554	-670.379822	-338.022186	979.783752
3076.957873	-672.133240	-337.379303	957.282288
3076.961207	-673.477478	-337.905334	937.410889
3076.964534	-675.347717	-337.437775	917.773193
3076.967871	-675.406189	-336.035065	896.791321
3076.971202	-675.815247	-335.918182	877.270569
3076.974536	-675.289246	-334.924591	860.029175
3076.977875	-674.938599	-334.164795	842.144897
3076.981200	-674.587952	-333.229675	823.793091
3076.984561	-673.886597	-331.885437	806.785522
3076.987874	-673.711304	-330.424286	789.602539
3076.991208	-672.483887	-327.969604	774.698975
3076.994534	-670.438293	-326.683807	758.100525
3076.997868	-669.269409	-325.456482	744.365845
3077.001205	-666.873169	-323.118622	728.760925
3077.004536	-664.593750	-321.599060	715.084717
3077.007872	-661.846863	-320.313263	700.473389
3077.011203	-661.145508	-318.267670	685.920471
3077.014569	-657.872559	-316.280518	670.958435
3077.017862	-655.534790	-313.416718	657.749817
3077.021198	-653.080078	-312.189362	644.190491
3077.024532	-649.982422	-309.910004	630.514282
3077.027891	-647.352356	-307.805969	618.416138
3077.031204	-643.494995	-306.461700	604.506104
3077.034535	-640.572754	-303.071899	592.875488
3077.037864	-636.890686	-301.610748	578.439453
3077.041215	-633.267090	-299.214508	567.276428
3077.044535	-629.468140	-296.818237	554.827515
3077.047865	-626.370544	-304.416138	-1438.801880
3077.051200	-618.012817	-315.111633	-1328.983032
3077.054538	-613.044983	-291.265930	512.220886
3077.057908	-613.161865	-286.882507	502.051422
3077.061200	-610.298035	-283.784943	489.368805
3077.064528	-605.914673	-281.505554	479.608429
3077.067864	-601.063721	-279.518402	465.756866
3077.071221	-599.135010	-277.122162	454.827576
3077.074531	-592.238464	-276.187042	443.547638
3077.077865	-586.978333	-271.803619	431.683228
3077.081194	-584.348328	-269.699585	422.390442
3077.084531	-579.438904	-267.186432	411.168915
3077.087863	-576.984192	-264.497955	402.928131
3077.091193	-572.834534	-262.919922	392.992401
3077.094530	-567.574463	-261.692566	385.745178
3077.097855	-560.736389	-257.952057	376.686127
3077.101195	-558.047913	-256.374054	369.263611
3077.104539	-552.963196	-253.977783	364.178833
3077.107863	-550.976013	-251.289307	354.009369
3077.111188	-547.235535	-250.529526	347.405029
3077.114522	-545.774414	-249.068375	341.735840
3077.117860	-538.527161	-245.970764	337.118652
3077.121187	-536.306213	-244.977203	331.566345
3077.124527	-533.500854	-242.814728	325.195801
3077.127892	-530.111023	-242.814728	320.052582
3077.131192	-526.312073	-239.892456	315.143188
3077.134524	-524.441833	-237.788437	310.876678
3077.137859	-522.162476	-236.794846	305.032166
3077.141187	-517.369934	-235.158386	301.642334
3077.144521	-516.084106	-233.521912	296.908234
3077.147852	-513.570984	-231.300995	292.407959
3077.151186	-510.005890	-231.008759	287.849213
